# Loading file                ::   ../data.csv
# Frequency vector size       ::   180001
# Magnitude vector size       ::   180001
# Smoothing frequency vector  ::   geomspace(start=0.1, stop=20, n=512)
# Elapsed Time                ::   0.88593 seconds
sfrqs,smags
0.1,1.45236
0.101042,1.384
0.102095,1.32482
0.103159,1.27885
0.104235,1.2493
0.105321,1.2384
0.106419,1.24744
0.107528,1.27693
0.108649,1.3268
0.109781,1.39661
0.110925,1.48581
0.112081,1.59401
0.113249,1.72123
0.11443,1.86819
0.115622,2.0365
0.116827,2.22873
0.118045,2.44833
0.119275,2.69936
0.120519,2.98589
0.121775,3.31116
0.123044,3.67668
0.124326,4.08131
0.125622,4.52065
0.126931,4.98686
0.128254,5.4689
0.129591,5.95342
0.130942,6.42592
0.132306,6.87221
0.133685,7.2798
0.135079,7.63902
0.136487,7.94374
0.137909,8.19152
0.139346,8.38325
0.140799,8.52228
0.142266,8.61331
0.143749,8.66116
0.145247,8.66992
0.146761,8.64255
0.148291,8.581
0.149836,8.48691
0.151398,8.36253
0.152976,8.21175
0.15457,8.04068
0.156181,7.85788
0.157809,7.67377
0.159454,7.4996
0.161116,7.34599
0.162795,7.22144
0.164492,7.13101
0.166206,7.07553
0.167938,7.05153
0.169689,7.05195
0.171457,7.06762
0.173244,7.08922
0.17505,7.10931
0.176874,7.12395
0.178718,7.1337
0.18058,7.14367
0.182463,7.16251
0.184364,7.20064
0.186286,7.26794
0.188227,7.37149
0.190189,7.51381
0.192171,7.69193
0.194174,7.89761
0.196198,8.11857
0.198243,8.34064
0.200309,8.55047
0.202397,8.73806
0.204506,8.89876
0.206638,9.03411
0.208791,9.15144
0.210968,9.26239
0.213166,9.38046
0.215388,9.51835
0.217633,9.6854
0.219901,9.88566
0.222193,10.1171
0.224509,10.3718
0.226849,10.6377
0.229213,10.9002
0.231602,11.145
0.234016,11.3603
0.236455,11.5383
0.238919,11.6768
0.24141,11.7782
0.243926,11.8495
0.246468,11.8998
0.249037,11.9394
0.251632,11.977
0.254255,12.0193
0.256905,12.0692
0.259583,12.1263
0.262288,12.187
0.265022,12.2453
0.267784,12.2945
0.270575,12.3286
0.273395,12.3429
0.276244,12.3356
0.279124,12.3074
0.282033,12.262
0.284972,12.2049
0.287942,12.143
0.290943,12.0836
0.293976,12.034
0.29704,12.001
0.300136,11.9905
0.303264,12.008
0.306424,12.0585
0.309618,12.1466
0.312845,12.2758
0.316106,12.4481
0.3194,12.6635
0.322729,12.9195
0.326093,13.211
0.329492,13.5305
0.332926,13.869
0.336396,14.2165
0.339902,14.5632
0.343444,14.9003
0.347024,15.2207
0.350641,15.5193
0.354295,15.7935
0.357988,16.0422
0.361719,16.2664
0.365489,16.4679
0.369298,16.6495
0.373147,16.8143
0.377036,16.9652
0.380966,17.1048
0.384937,17.2349
0.388949,17.3563
0.393002,17.469
0.397098,17.5725
0.401237,17.666
0.405419,17.7496
0.409645,17.8235
0.413914,17.889
0.418228,17.9478
0.422587,18.0019
0.426991,18.053
0.431442,18.102
0.435938,18.1483
0.440482,18.1897
0.445073,18.2227
0.449712,18.2434
0.454399,18.2478
0.459135,18.2337
0.46392,18.2008
0.468755,18.1519
0.473641,18.0924
0.478577,18.0297
0.483565,17.9721
0.488605,17.9276
0.493698,17.903
0.498843,17.9031
0.504042,17.9304
0.509296,17.9851
0.514604,18.0658
0.519967,18.1696
0.525387,18.2927
0.530863,18.4307
0.536395,18.5791
0.541986,18.7332
0.547635,18.8889
0.553343,19.0423
0.55911,19.19
0.564937,19.3285
0.570825,19.4541
0.576774,19.5628
0.582786,19.6491
0.58886,19.7064
0.594997,19.7273
0.601199,19.7035
0.607465,19.6275
0.613796,19.4937
0.620193,19.2994
0.626657,19.0457
0.633188,18.7372
0.639788,18.3817
0.646456,17.9887
0.653194,17.5685
0.660002,17.13
0.66688,16.6801
0.673831,16.2229
0.680854,15.7599
0.68795,15.2913
0.69512,14.8174
0.702365,14.3396
0.709685,13.8623
0.717082,13.3925
0.724556,12.9403
0.732108,12.5166
0.739738,12.1322
0.747448,11.7957
0.755238,11.5117
0.763109,11.2808
0.771063,11.0992
0.779099,10.9596
0.787219,10.8534
0.795424,10.772
0.803715,10.7086
0.812091,10.66
0.820555,10.6267
0.829107,10.6129
0.837749,10.6254
0.84648,10.6725
0.855303,10.7619
0.864217,10.8995
0.873224,11.0882
0.882325,11.3272
0.891521,11.6127
0.900813,11.9377
0.910202,12.2943
0.919688,12.6744
0.929274,13.0709
0.938959,13.4794
0.948745,13.8975
0.958634,14.3249
0.968625,14.7622
0.978721,15.2097
0.988921,15.6651
0.999228,16.1229
1.00964,16.5728
1.02017,17.0004
1.0308,17.3874
1.04154,17.7139
1.0524,17.9597
1.06337,18.1072
1.07445,18.1431
1.08565,18.0604
1.09696,17.859
1.1084,17.5462
1.11995,17.1356
1.13162,16.6461
1.14341,16.0997
1.15533,15.5195
1.16737,14.9278
1.17954,14.3438
1.19183,13.7827
1.20426,13.2546
1.21681,12.7646
1.22949,12.3126
1.2423,11.8947
1.25525,11.5042
1.26833,11.1329
1.28155,10.7727
1.29491,10.4165
1.30841,10.0594
1.32204,9.69881
1.33582,9.33474
1.34974,8.96924
1.36381,8.60591
1.37803,8.24904
1.39239,7.90293
1.4069,7.57127
1.42156,7.2569
1.43638,6.96173
1.45135,6.68695
1.46648,6.43342
1.48176,6.20208
1.49721,5.99431
1.51281,5.81204
1.52858,5.65774
1.54451,5.534
1.56061,5.44305
1.57687,5.38625
1.59331,5.3635
1.60991,5.37295
1.62669,5.41078
1.64365,5.47137
1.66078,5.54776
1.67809,5.63243
1.69558,5.71837
1.71325,5.80009
1.7311,5.87463
1.74915,5.94212
1.76738,6.00582
1.7858,6.07159
1.80441,6.14693
1.82322,6.23959
1.84222,6.35615
1.86142,6.50077
1.88082,6.67434
1.90042,6.87407
1.92023,7.09375
1.94024,7.32428
1.96047,7.55463
1.9809,7.77284
2.00154,7.96692
2.02241,8.12569
2.04348,8.23941
2.06478,8.30022
2.0863,8.30256
2.10805,8.24344
2.13002,8.12263
2.15222,7.94288
2.17465,7.70993
2.19731,7.43222
2.22022,7.12044
2.24336,6.7867
2.26674,6.44349
2.29036,6.10258
2.31423,5.77408
2.33835,5.46567
2.36273,5.18228
2.38735,4.92609
2.41223,4.69699
2.43737,4.49327
2.46278,4.31233
2.48845,4.15141
2.51438,4.00801
2.54059,3.88011
2.56707,3.7661
2.59382,3.66458
2.62086,3.57412
2.64817,3.49309
2.67577,3.41961
2.70366,3.35169
2.73184,3.28737
2.76031,3.22502
2.78908,3.16346
2.81815,3.10211
2.84752,3.04095
2.8772,2.9804
2.90719,2.92112
2.93749,2.86377
2.9681,2.80884
2.99904,2.7565
3.0303,2.70654
3.06188,2.65844
3.09379,2.61148
3.12604,2.56491
3.15862,2.51807
3.19154,2.47057
3.2248,2.42229
3.25841,2.37347
3.29237,2.32461
3.32669,2.27639
3.36136,2.22964
3.39639,2.18515
3.43179,2.14366
3.46756,2.10577
3.5037,2.07191
3.54022,2.04225
3.57712,2.01678
3.6144,1.99522
3.65207,1.97707
3.69013,1.96167
3.72859,1.9482
3.76745,1.9358
3.80672,1.92364
3.8464,1.91101
3.88648,1.89742
3.92699,1.88269
3.96792,1.86693
4.00928,1.85053
4.05106,1.83417
4.09328,1.81865
4.13595,1.80481
4.17905,1.79341
4.22261,1.78504
4.26662,1.78001
4.31109,1.77833
4.35602,1.77971
4.40142,1.78363
4.44729,1.78937
4.49365,1.79615
4.54048,1.80315
4.5878,1.80963
4.63562,1.81491
4.68393,1.81845
4.73275,1.8198
4.78208,1.81864
4.83192,1.81469
4.88228,1.80776
4.93317,1.79771
4.98458,1.78442
5.03653,1.76785
5.08903,1.74803
5.14207,1.72505
5.19566,1.69914
5.24981,1.67065
5.30453,1.64005
5.35981,1.60791
5.41568,1.57489
5.47212,1.54168
5.52915,1.50894
5.58678,1.47722
5.64501,1.44694
5.70384,1.41834
5.76329,1.39147
5.82336,1.36618
5.88405,1.34221
5.94538,1.31924
6.00735,1.2969
6.06996,1.27493
6.13322,1.25313
6.19715,1.23143
6.26173,1.20988
6.327,1.1886
6.39294,1.1677
6.45957,1.14729
6.5269,1.12739
6.59492,1.10791
6.66366,1.08869
6.73311,1.06952
6.80328,1.0502
6.87419,1.03059
6.94584,1.01069
7.01823,0.990662
7.09138,0.97085
7.16529,0.951735
7.23997,0.933896
7.31543,0.917931
7.39167,0.904365
7.46871,0.893572
7.54655,0.885703
7.62521,0.880646
7.70468,0.878024
7.78498,0.877222
7.86612,0.877463
7.9481,0.877901
8.03094,0.877731
8.11464,0.876297
8.19922,0.87319
8.28468,0.868305
8.37102,0.861865
8.45827,0.854394
8.54642,0.846645
8.6355,0.839492
8.7255,0.833807
8.81644,0.83033
8.90833,0.829556
9.00118,0.831653
9.09499,0.836423
9.18979,0.843302
9.28557,0.851418
9.38235,0.859684
9.48013,0.86691
9.57894,0.871941
9.67878,0.873783
9.77965,0.871708
9.88158,0.865333
9.98457,0.854654
10.0886,0.84003
10.1938,0.822127
10.3,0.801824
10.4074,0.780091
10.5158,0.757872
10.6255,0.735969
10.7362,0.714965
10.8481,0.695175
10.9612,0.676658
11.0754,0.659247
11.1908,0.642632
11.3075,0.626438
11.4253,0.610317
11.5444,0.594014
11.6647,0.577414
11.7863,0.560547
11.9091,0.543577
12.0333,0.526751
12.1587,0.510345
12.2854,0.494611
12.4134,0.479732
12.5428,0.4658
12.6735,0.452809
12.8056,0.440677
12.9391,0.429269
13.074,0.418427
13.2102,0.408005
13.3479,0.397888
13.487,0.388
13.6276,0.378311
13.7696,0.36882
13.9131,0.359547
14.0582,0.350516
14.2047,0.341746
14.3527,0.333244
14.5023,0.32501
14.6535,0.317031
14.8062,0.309292
14.9605,0.301775
15.1164,0.294456
15.274,0.287309
15.4332,0.280297
15.594,0.27337
15.7565,0.266466
15.9208,0.259512
16.0867,0.252437
16.2544,0.245181
16.4238,0.237706
16.595,0.230013
16.7679,0.222142
16.9427,0.214173
17.1193,0.206214
17.2977,0.198388
17.478,0.190807
17.6601,0.183557
17.8442,0.17668
18.0302,0.170173
18.2181,0.163988
18.408,0.158046
18.5998,0.152252
18.7937,0.146516
18.9896,0.140773
19.1875,0.134991
19.3875,0.129177
19.5895,0.123378
19.7937,0.117665
20,0.112124
